"x1"
-0.15536
2.1446
1.9446
3.3446
3.0446
4.1446
4.0446
5.9446
2.9446
-1.3554
-3.4554
-0.95536
0.94464
3.5446
2.5446
2.8446
2.0446
1.1446
0.94464
-1.0554
-2.5554
-3.9554
-2.1554
-2.1554
-4.9554
-5.1554
-9.2554
-14.855
-25.355
-32.955
-38.355
-44.755
-46.755
-27.455
4.4446
24.245
33.945
33.545
25.645
16.245
10.745
7.1446
5.9446
3.4446
4.0446
2.3446
2.2446
3.5446
3.4446
3.6446
4.1446
4.3446
3.5446
2.0446
2.0446
1.5446
0.54464
1.2446
1.7446
0.44464
0.54464
-0.055357
1.1446
2.9446
0.84464
-2.3554
-2.3554
-1.4554
-3.1554
-1.3554
-2.0554
-1.8554
-0.85536
-2.0554
-1.3554
-1.3554
-0.25536
0.44464
1.2446
1.2446
-0.15536
-0.15536
-1.8554
-0.95536
0.64464
7.1446
14.945
12.845
3.3446
-13.255
-20.055
-16.155
-8.0554
-8.0554
-8.7554
-8.6554
-8.7554
-7.2554
-7.4554
-5.2554
-3.0554
-3.2554
-3.9554
-5.8554
-3.3554
-1.5554
-0.055357
3.2446
2.8446
7.9446
7.2446
10.545
10.945
10.045
9.4446
8.8446
11.045
9.6446
11.445
10.845
7.9446
7.4446
5.7446
8.4446
9.3446
9.2446
4.7446
1.9446
1.0446
1.0446
0.94464
1.9446
0.64464
0.64464
-0.45536
-0.055357
2.4446
1.3446
1.3446
0.14464
0.044643
-1.9554
-1.9554
-1.7554
-0.35536
0.044643
1.8446
0.44464
0.14464
-1.8554
-1.9554
0.34464
-0.85536
-2.4554
-0.45536
2.0446
2.2446
0.54464
0.24464
-0.75536
-1.7554
1.2446
0.74464
0.24464
-0.75536
-2.0554
-1.0554
-4.0554
-4.4554
-4.4554
-2.4554
-2.8554
-1.5554
-3.4554
-5.2554
-3.7554
-2.5554
-2.2554
-1.8554
-1.3554
-0.95536
0.044643
0.14464
-5.0554
-6.0554
-6.4554
-5.7554
-5.6554
-6.5554
-5.6554
-1.7554
-2.4554
-1.3554
-2.8554
-0.75536
-2.3554
-2.2554
0.044643
1.9446
6.5446
12.845
15.445
10.845
-6.1554
-19.755
-15.355
-7.2554
-6.5554
-7.1554
-12.155
-17.655
-26.055
-36.455
-42.755
-46.455
-43.955
-21.155
9.9446
29.445
37.745
32.345
21.745
13.445
9.1446
6.4446
6.3446
7.0446
6.2446
5.0446
5.2446
3.3446
4.4446
3.3446
3.9446
3.8446
3.1446
2.0446
1.0446
0.84464
1.3446
2.3446
4.3446
4.2446
3.5446
3.3446
2.9446
0.44464
-0.055357
-0.45536
-0.75536
-0.35536
1.5446
2.3446
3.2446
1.8446
5.2446
4.3446
4.7446
4.6446
3.8446
2.9446
3.4446
0.94464
0.44464
-0.055357
-0.75536
-1.2554
-1.1554
-1.4554
-2.3554
-3.1554
-6.2554
-1.7554
-0.65536
0.64464
0.94464
0.24464
-0.35536
0.64464
0.044643
0.34464
-0.95536
0.044643
0.34464
0.64464
-0.055357
-1.9554
-4.2554
-2.4554
0.64464
3.5446
5.5446
7.2446
6.8446
7.6446
7.7446
5.9446
5.1446
5.1446
5.6446
6.2446
6.7446
7.1446
6.3446
5.7446
4.6446
4.7446
5.0446
2.8446
4.1446
2.9446
3.8446
4.2446
4.2446
6.6446
14.845
14.845
7.3446
-9.9554
-16.655
-11.855
-3.0554
-1.3554
-1.0554
-2.8554
-2.5554
-3.0554
-2.3554
-2.4554
-0.85536
-0.25536
-1.8554
-2.3554
-0.45536
-1.1554
-0.25536
-0.65536
-2.2554
-3.1554
-1.2554
-2.4554
-3.1554
-4.4554
-6.0554
-4.9554
-4.7554
-4.7554
-6.0554
-6.6554
-6.5554
-4.3554
-0.85536
1.2446
1.4446
1.0446
0.94464
1.7446
2.3446
3.4446
3.5446
4.1446
3.9446
4.4446
4.0446
3.6446
3.7446
5.3446
3.4446
3.9446
2.7446
2.2446
3.6446
2.8446
1.5446
0.94464
1.6446
0.94464
-1.0554
0.14464
0.044643
-2.6554
-5.3554
-6.3554
-11.955
-18.755
-27.655
-35.855
-40.955
-46.455
-40.255
-16.455
13.545
29.645
36.245
33.945
22.845
15.645
11.545
7.5446
8.5446
7.1446
6.6446
6.8446
6.8446
5.7446
5.8446
5.8446
4.9446
2.0446
1.5446
1.8446
2.7446
3.1446
3.1446
1.6446
0.54464
3.1446
1.4446
0.44464
0.94464
0.54464
0.14464
0.84464
3.4446
1.0446
-0.55536
2.4446
7.6446
17.345
17.845
12.745
-2.4554
-13.855
-10.955
-1.7554
-0.25536
-0.055357
-0.75536
-1.9554
-3.1554
-3.0554
-1.3554
-0.55536
-1.5554
-1.9554
-0.55536
-0.95536
-0.055357
-0.65536
-1.9554
-2.6554
-2.4554
-2.1554
-2.3554
-0.95536
-2.1554
-3.1554
-3.1554
-2.4554
-2.7554
-0.25536
-0.45536
1.7446
0.64464
1.8446
0.44464
3.6446
3.5446
3.5446
4.5446
4.0446
5.9446
5.7446
3.8446
3.3446
5.7446
4.8446
3.6446
1.3446
1.3446
-0.45536
-0.85536
-0.055357
-0.45536
-0.65536
-1.4554
-1.9554
-1.0554
-1.9554
-5.7554
-7.2554
-7.7554
-8.7554
-12.655
-10.855
-10.355
-7.2554
-6.8554
-6.7554
-6.6554
-5.0554
-4.6554
-4.8554
-6.0554
-7.3554
-3.6554
-5.3554
-5.5554
-3.6554
-5.9554
-5.0554
-6.4554
-7.1554
-8.4554
-8.4554
-6.7554
-5.4554
-5.2554
-5.6554
-3.8554
-7.0554
-5.1554
-4.0554
-1.0554
-0.15536
2.0446
2.5446
1.7446
2.3446
2.3446
3.2446
3.7446
3.8446
6.4446
5.6446
3.5446
4.0446
3.7446
3.8446
5.4446
10.445
18.045
17.445
8.9446
-5.4554
-12.655
-7.3554
-0.85536
0.64464
-1.8554
-1.5554
-2.7554
-6.2554
-12.155
-23.155
-31.055
-37.955
-42.655
-43.455
-26.655
2.2446
20.645
34.445
36.845
28.745
16.945
11.045
7.9446
4.6446
6.0446
5.1446
6.4446
5.0446
6.2446
4.8446
4.3446
4.6446
2.7446
3.9446
2.0446
2.0446
0.74464
0.54464
3.2446
4.0446
2.2446
2.7446
4.2446
2.5446
2.7446
3.7446
3.3446
3.4446
1.1446
0.64464
2.1446
3.7446
0.24464
-0.95536
1.8446
0.84464
-0.95536
-0.35536
-3.5554
-1.6554
-2.0554
-2.8554
-0.85536
-1.8554
-2.4554
-2.7554
-2.8554
-4.0554
-4.0554
-3.9554
-3.2554
-1.0554
-3.0554
-3.5554
-5.8554
-5.0554
-5.5554
-4.6554
-2.6554
-2.5554
-2.8554
-4.3554
-2.6554
-3.2554
-0.75536
-0.85536
-2.0554
-2.1554
-0.055357
2.2446
2.7446
3.7446
2.1446
4.4446
3.7446
6.4446
3.6446
4.4446
3.8446
2.9446
4.0446
4.0446
5.7446
1.7446
0.94464
0.54464
0.34464
3.0446
4.6446
13.445
15.245
9.4446
-4.7554
-17.655
-16.655
-11.355
-5.7554
-4.8554
-5.3554
-6.1554
-6.2554
-4.4554
-6.5554
-7.9554
-5.2554
-4.7554
-3.3554
-2.4554
-3.7554
-4.2554
-4.2554
-3.7554
-3.5554
-3.2554
-4.2554
-4.2554
-5.2554
-5.9554
-7.5554
-8.7554
-9.9554
-8.4554
-7.1554
-6.7554
-3.3554
-4.4554
-2.9554
-0.95536
0.64464
1.7446
1.4446
0.044643
1.2446
1.2446
2.7446
5.7446
5.7446
4.1446
7.0446
5.4446
4.3446
4.3446
4.1446
6.3446
4.1446
6.7446
4.7446
3.3446
3.7446
1.9446
3.5446
4.9446
4.8446
2.7446
0.84464
-0.65536
-1.8554
-2.9554
-4.0554
-7.6554
-14.255
-25.155
-30.255
-36.155
-39.555
-31.955
-6.8554
17.245
32.745
39.145
36.045
23.645
12.845
8.6446
5.8446
4.3446
4.6446
4.7446
4.1446
5.8446
2.9446
0.24464
0.44464
0.14464
-0.15536
2.6446
1.5446
1.8446
0.14464
-1.2554
-0.45536
-1.4554
0.24464
-2.6554
-2.2554
-2.2554
-0.45536
1.6446
-0.75536
-0.15536
1.5446
8.8446
17.745
14.045
4.3446
-12.755
-16.655
-8.2554
-4.6554
-6.0554
-5.9554
-3.8554
-4.4554
-2.1554
-3.5554
-4.0554
-6.5554
-5.6554
-3.6554
-4.3554
-5.7554
-4.6554
-5.9554
-4.1554
-6.2554
-5.1554
-6.7554
-6.0554
-5.6554
-3.4554
-4.6554
-5.5554
-4.4554
-3.7554
-2.5554
-1.0554
-2.3554
-1.1554
-1.3554
-0.55536
0.84464
0.74464
2.4446
2.8446
3.5446
4.7446
5.0446
4.5446
2.8446
2.2446
3.4446
3.2446
2.1446
2.4446
0.14464
0.24464
0.24464
-0.25536
-1.1554
-1.3554
-0.85536
-1.5554
-2.6554
-4.0554
-4.6554
-3.9554
-4.0554
-3.6554
-2.9554
-5.0554
-4.3554
-4.8554
-2.8554
-3.0554
-5.7554
-6.7554
-5.8554
-4.3554
-2.9554
-3.9554
-4.6554
-4.4554
-5.4554
-5.0554
-3.0554
-3.0554
-2.2554
-3.9554
-5.2554
-4.6554
-4.4554
-5.6554
-3.7554
-4.5554
-4.1554
-5.7554
-7.7554
-9.2554
-7.6554
-7.5554
-7.3554
-7.8554
-8.2554
-10.655
-9.4554
-8.4554
-5.1554
-3.2554
-2.8554
-1.4554
-1.5554
-1.8554
2.0446
6.6446
15.245
17.545
9.4446
-4.3554
-15.355
-10.255
-3.7554
-0.15536
-0.15536
-1.7554
-0.15536
-0.055357
-2.0554
-3.4554
-2.4554
-2.4554
-0.35536
0.64464
1.1446
-0.35536
-3.1554
-6.5554
-9.8554
-10.655
-13.055
-20.855
-30.555
-37.155
-42.755
-46.855
-40.955
-11.055
17.345
34.745
39.645
34.745
23.645
13.345
8.1446
5.3446
3.0446
1.4446
2.9446
0.24464
0.24464
-0.35536
0.64464
-3.3554
-2.5554
-2.5554
-1.8554
0.64464
0.044643
-2.0554
-2.4554
-1.1554
-2.3554
-1.4554
-3.2554
-3.0554
-3.3554
-3.0554
-3.0554
-2.3554
-5.9554
-4.7554
-4.6554
-4.5554
-3.0554
-6.2554
-2.7554
-4.9554
-4.1554
-4.4554
-4.4554
-5.6554
-3.5554
-3.7554
-1.9554
-4.9554
-5.7554
-5.9554
-4.4554
-5.7554
-3.2554
-2.0554
-3.6554
-4.5554
-3.9554
-5.6554
-4.4554
-3.7554
-3.9554
-6.8554
-6.4554
-6.5554
-4.9554
-3.8554
-2.5554
-1.5554
0.54464
-1.5554
-1.7554
-2.6554
-1.0554
-0.85536
0.14464
-1.3554
-0.35536
1.0446
2.3446
6.7446
13.245
18.245
16.245
8.8446
-8.3554
-13.155
-5.2554
0.84464
2.8446
0.44464
-0.55536
-0.75536
-1.1554
-2.3554
-2.4554
-2.1554
-2.2554
-2.4554
-3.3554
-4.1554
-2.2554
-1.6554
-1.6554
-4.2554
-3.7554
-2.6554
-0.85536
-2.0554
-4.8554
-3.8554
-2.4554
-3.6554
-4.0554
-4.5554
-3.7554
-3.5554
-1.5554
-2.8554
-0.95536
-0.055357
-0.95536
-0.15536
0.24464
-0.055357
0.14464
-0.85536
-1.5554
-1.0554
-1.6554
0.14464
0.64464
-1.6554
-4.2554
-2.5554
-3.1554
-5.2554
-4.5554
-5.9554
-5.5554
-7.0554
-6.3554
-4.6554
-4.6554
-2.7554
-0.25536
-0.055357
2.5446
1.4446
-1.8554
-0.15536
2.3446
2.2446
2.8446
1.4446
1.5446
1.6446
2.0446
1.9446
1.8446
0.14464
0.64464
1.4446
0.44464
1.1446
1.4446
-0.55536
0.24464
1.3446
-0.35536
0.044643
-1.3554
-5.5554
-7.6554
-7.9554
-9.6554
-17.355
-27.955
-36.555
-41.455
-46.455
-42.855
-19.355
11.945
32.245
39.045
35.945
25.145
15.545
8.6446
3.2446
3.2446
9.1446
16.445
20.945
11.845
-2.2554
-13.955
-11.755
-2.7554
1.5446
3.8446
2.4446
2.2446
0.44464
2.2446
-0.15536
-0.25536
-0.35536
-0.45536
0.34464
-0.65536
-0.65536
-1.5554
-1.6554
-2.0554
-0.25536
0.24464
0.94464
-0.35536
-1.6554
-2.1554
-1.2554
-2.0554
-3.1554
-2.1554
-4.6554
-3.4554
-3.1554
-1.4554
-1.5554
-2.8554
-3.4554
-3.2554
-4.3554
-2.9554
-1.6554
-1.7554
-1.6554
-2.9554
-3.7554
-2.9554
-2.7554
-0.35536
-1.6554
-3.8554
-2.0554
-2.1554
-1.2554
0.54464
2.1446
0.64464
0.44464
0.14464
2.3446
4.3446
4.1446
6.2446
6.4446
6.8446
6.7446
6.2446
7.3446
8.6446
6.6446
6.3446
6.1446
9.1446
9.6446
8.6446
8.0446
6.3446
7.3446
5.8446
4.0446
4.5446
4.1446
3.3446
1.3446
1.8446
1.2446
2.1446
-0.65536
-1.4554
-1.2554
-0.055357
0.044643
-0.25536
-0.55536
-0.055357
-0.055357
0.94464
1.8446
1.1446
1.5446
1.3446
1.1446
-0.35536
1.1446
1.7446
2.2446
3.2446
1.7446
3.5446
9.1446
16.545
15.545
7.0446
-9.3554
-16.055
-8.8554
-1.4554
-0.25536
-0.85536
-2.6554
-1.5554
-1.8554
-2.1554
-3.1554
-3.7554
-2.8554
-4.1554
-4.1554
-4.0554
-3.1554
-3.5554
-3.5554
-4.6554
-3.0554
-1.5554
0.84464
4.0446
3.3446
2.5446
5.2446
5.8446
5.9446
4.7446
3.1446
3.3446
4.5446
4.1446
3.1446
3.7446
5.5446
4.5446
4.3446
4.0446
5.9446
4.5446
6.4446
5.6446
7.4446
4.8446
1.4446
2.6446
2.2446
2.9446
1.9446
-0.75536
-4.3554
-9.2554
-21.855
-29.855
-34.155
-40.255
-40.155
-23.255
4.9446
26.145
35.945
35.045
27.245
17.645
11.045
8.4446
8.1446
10.745
10.345
7.3446
8.2446
5.1446
5.8446
7.5446
8.8446
7.9446
6.2446
6.8446
7.0446
6.2446
4.0446
5.2446
4.2446
4.7446
4.4446
1.3446
1.6446
2.9446
3.8446
2.9446
1.8446
3.1446
4.4446
5.2446
3.0446
1.2446
2.1446
0.14464
0.74464
2.4446
1.2446
0.14464
-0.45536
-1.5554
1.5446
5.3446
14.845
16.445
8.7446
-7.2554
-17.155
-14.055
-7.7554
-2.5554
-4.0554
-3.2554
-3.9554
-4.5554
-2.1554
-1.7554
-1.0554
-2.9554
-2.9554
-1.4554
-1.7554
-0.75536
-1.6554
-2.7554
-1.1554
1.0446
0.24464
2.1446
2.6446
3.4446
5.3446
5.4446
5.6446
6.4446
6.6446
6.2446
7.5446
7.2446
6.8446
6.7446
6.9446
6.7446
7.9446
5.8446
6.3446
6.7446
5.3446
3.2446
1.9446
1.8446
1.4446
2.5446
1.8446
2.0446
3.8446
3.4446
1.8446
1.7446
1.4446
0.54464
1.6446
0.94464
-0.055357
0.44464
0.34464
0.14464
2.4446
0.74464
0.044643
-1.2554
0.44464
0.74464
0.044643
0.44464
1.2446
0.64464
0.24464
-0.055357
0.74464
1.2446
1.2446
3.0446
2.5446
2.1446
1.5446
1.6446
0.14464
-0.35536
1.5446
2.7446
0.54464
0.64464
0.84464
1.4446
-1.0554
0.044643
-0.15536
-0.95536
1.2446
0.64464
-0.35536
-3.2554
-3.7554
-3.2554
-3.5554
-3.2554
-3.4554
-3.6554
-2.4554
0.54464
2.3446
6.1446
13.745
21.445
17.545
7.3446
-9.2554
-13.555
-3.8554
3.2446
5.6446
6.3446
3.0446
3.3446
4.1446
4.5446
4.6446
3.4446
2.3446
1.2446
2.2446
2.3446
2.1446
1.5446
0.94464
2.0446
2.2446
2.9446
1.3446
0.74464
-1.6554
-2.8554
-10.655
-19.255
-27.855
-31.355
-39.955
-40.655
-21.855
7.0446
26.345
35.645
34.545
26.645
16.045
10.345
8.1446
6.6446
7.2446
6.0446
5.5446
6.3446
3.5446
2.2446
4.0446
3.1446
2.4446
1.2446
2.5446
3.8446
3.4446
2.2446
0.64464
0.94464
0.84464
0.24464
1.2446
1.9446
1.0446
2.3446
2.8446
-0.25536
0.44464
1.6446
1.4446
1.8446
2.0446
4.0446
3.5446
2.2446
2.8446
0.64464
1.3446
2.1446
1.2446
0.34464
0.24464
0.44464
-1.9554
-1.5554
-2.5554
-4.7554
-4.0554
-3.9554
-3.8554
-4.2554
-4.1554
-7.2554
-3.8554
-4.7554
-5.1554
-3.9554
-2.5554
-4.2554
-3.8554
-3.7554
-2.4554
-2.4554
-1.4554
-2.0554
-2.0554
-1.3554
1.9446
8.4446
17.345
20.045
14.945
2.8446
-10.855
-7.5554
2.1446
4.9446
6.2446
5.5446
3.4446
1.3446
2.4446
2.0446
2.8446
2.4446
1.4446
1.0446
-0.25536
0.64464
0.64464
0.54464
0.34464
0.044643
0.044643
0.34464
-0.95536
-0.65536
-3.0554
0.54464
-1.0554
-0.65536
-0.75536
-0.35536
-0.15536
-3.5554
-3.0554
-1.7554
-0.95536
-1.1554
-1.4554
-0.35536
-0.35536
-0.35536
0.44464
-0.35536
0.044643
-1.8554
-1.8554
-1.4554
-2.6554
-1.0554
-0.65536
-0.55536
1.6446
1.1446
-0.35536
-1.2554
-1.9554
-1.5554
-1.4554
0.14464
-0.055357
-2.8554
0.44464
0.94464
-0.25536
-0.75536
-0.15536
1.4446
-0.35536
-1.7554
-2.1554
-3.3554
-2.5554
-3.4554
-2.0554
-1.1554
-1.8554
-0.95536
-1.5554
-1.0554
2.1446
3.8446
2.3446
0.94464
-1.5554
1.2446
2.1446
2.1446
1.5446
1.3446
3.5446
5.3446
1.9446
2.0446
3.1446
2.3446
2.7446
2.2446
3.3446
4.8446
6.5446
5.6446
4.1446
3.9446
2.0446
0.84464
2.5446
1.9446
5.3446
10.045
15.145
10.245
-1.1554
-22.955
-36.555
-38.455
-37.855
-41.355
-42.955
-32.455
-7.1554
15.345
30.445
36.045
28.845
19.445
12.145
6.0446
4.9446
4.8446
4.3446
2.4446
2.1446
2.6446
2.9446
3.1446
3.4446
2.3446
1.6446
1.4446
2.2446
2.1446
0.24464
0.84464
1.4446
2.0446
0.94464
-1.0554
-1.0554
-1.6554
-0.75536
-1.7554
-1.5554
-1.9554
-1.2554
-0.85536
0.044643
-1.6554
-0.15536
-0.15536
0.84464
1.4446
1.6446
1.0446
-1.1554
2.2446
1.1446
0.64464
-2.1554
-3.8554
-2.7554
-2.9554
-2.9554
-3.4554
-3.1554
-4.5554
-2.6554
-2.5554
-3.1554
-2.3554
-3.5554
-3.4554
-2.6554
-2.0554
-2.4554
-1.9554
-1.1554
0.54464
1.1446
0.24464
-1.0554
-0.45536
0.74464
2.7446
2.7446
3.5446
5.5446
2.0446
1.1446
3.7446
4.4446
4.1446
3.1446
3.4446
3.0446
4.8446
4.4446
4.5446
0.044643
-1.5554
-1.5554
-1.6554
-0.35536
-1.1554
-3.3554
-3.5554
-3.7554
-4.2554
-2.9554
0.34464
5.9446
14.945
12.545
6.2446
-8.6554
-17.655
-12.155
-6.0554
-5.6554
-5.5554
-5.5554
-5.4554
-3.9554
-3.7554
-1.8554
-2.1554
-1.5554
-0.75536
-1.3554
-2.6554
-3.1554
-2.6554
-1.8554
-0.55536
-0.65536
-1.5554
-0.75536
-1.2554
-0.75536
-2.0554
-2.7554
-1.7554
-2.5554
-2.1554
-0.55536
-1.9554
0.14464
-1.7554
-2.4554
-2.9554
-3.8554
-4.8554
-4.3554
-3.5554
-5.0554
-7.4554
-5.5554
-7.3554
-6.7554
-7.3554
-6.6554
-4.7554
-2.8554
-1.4554
-0.75536
-2.1554
-0.45536
0.64464
2.3446
0.14464
-1.1554
-2.4554
-0.85536
2.0446
1.7446
3.1446
-0.45536
0.64464
1.5446
1.8446
2.1446
0.24464
-0.45536
-2.1554
-0.15536
0.64464
3.2446
1.7446
0.044643
0.54464
0.54464
-0.15536
2.1446
1.4446
0.94464
-1.6554
-5.2554
-11.055
-21.555
-33.155
-39.555
-45.655
-49.755
-36.855
-8.7554
17.245
32.245
37.145
30.045
18.645
9.4446
7.8446
4.8446
5.6446
6.5446
5.2446
4.5446
4.3446
5.2446
5.2446
4.7446
8.4446
17.645
19.745
16.245
2.0446
-14.555
-13.055
-4.9554
0.94464
1.0446
-0.65536
0.14464
0.34464
-2.8554
-1.4554
-1.0554
0.24464
0.24464
1.5446
-0.65536
-1.3554
-1.3554
-2.7554
1.4446
1.5446
1.4446
-0.055357
0.044643
-2.8554
-3.8554
-3.9554
-3.7554
-2.0554
-1.8554
-4.3554
-2.0554
-1.5554
-3.0554
-4.0554
-3.9554
-4.1554
-3.6554
-1.7554
-3.2554
-4.8554
-5.4554
-4.3554
-2.8554
-3.8554
-4.0554
-1.7554
-2.1554
-1.1554
-1.1554
0.74464
1.9446
1.4446
2.4446
-0.25536
1.5446
2.7446
3.5446
5.3446
4.3446
3.9446
4.2446
2.9446
5.1446
3.5446
4.5446
4.4446
2.9446
3.3446
0.044643
1.9446
3.3446
3.8446
1.1446
2.6446
3.1446
1.4446
2.2446
1.2446
0.64464
1.5446
2.3446
1.4446
0.44464
1.1446
0.44464
0.24464
-1.4554
-2.5554
-1.3554
-2.0554
-0.55536
-0.95536
-0.55536
-1.2554
-1.1554
0.64464
0.24464
-1.4554
-1.2554
-1.5554
-0.75536
0.14464
-1.7554
-0.65536
-1.5554
0.64464
3.0446
12.145
16.845
13.345
1.5446
-13.855
-16.655
-7.2554
-2.1554
-2.7554
-2.6554
-3.7554
-4.8554
-7.1554
-7.9554
-8.0554
-6.2554
-4.4554
-3.2554
-1.6554
-2.3554
-0.95536
-0.25536
1.6446
2.5446
3.5446
2.6446
3.7446
1.9446
0.84464
2.3446
3.8446
3.6446
3.7446
2.8446
2.9446
4.3446
1.4446
2.8446
1.9446
3.2446
4.1446
4.6446
5.7446
4.5446
4.2446
0.84464
0.94464
1.1446
-1.7554
-3.2554
-6.8554
-12.555
-21.255
-29.855
-35.555
-42.355
-43.255
-22.055
7.4446
25.945
37.145
37.445
27.445
18.945
11.745
7.6446
6.6446
5.1446
5.8446
4.6446
4.9446
3.6446
6.1446
3.2446
1.6446
5.0446
4.4446
5.6446
3.8446
3.0446
4.9446
5.9446
5.4446
4.7446
2.4446
1.8446
1.0446
1.2446
3.0446
1.7446
0.94464
0.64464
0.044643
1.4446
3.2446
2.3446
2.6446
0.64464
1.1446
-1.4554
1.1446
0.24464
-0.75536
1.3446
-1.6554
-0.75536
-0.35536
0.14464
0.34464
-0.15536
1.5446
7.7446
14.945
14.645
3.8446
-12.155
-17.755
-9.5554
-3.5554
-1.7554
-3.0554
-3.3554
-4.1554
-2.3554
-1.6554
0.64464
-1.0554
1.6446
0.94464
-0.85536
-0.45536
1.7446
3.3446
2.0446
3.8446
5.9446
5.9446
6.2446
6.6446
8.3446
8.2446
4.9446
5.0446
5.8446
6.3446
3.4446
2.2446
2.3446
1.9446
2.3446
2.6446
2.1446
2.7446
3.7446
1.6446
1.5446
-1.3554
-0.35536
1.1446
0.64464
-0.25536
0.34464
-0.85536
-2.2554
-1.5554
-0.75536
0.74464
1.1446
0.84464
-0.055357
-0.055357
1.9446
0.54464
2.8446
1.0446
1.7446
0.044643
1.2446
0.44464
0.94464
1.8446
1.9446
1.7446
2.3446
0.64464
0.34464
-1.0554
-0.15536
-0.15536
3.6446
3.2446
0.44464
-0.25536
0.44464
0.64464
-0.45536
-0.15536
-1.1554
-2.1554
-1.8554
-1.3554
-3.2554
-5.0554
-5.8554
-3.6554
-1.7554
0.24464
3.2446
5.1446
5.2446
3.6446
4.5446
6.6446
6.5446
6.4446
6.7446
4.9446
5.9446
4.6446
5.6446
5.5446
4.4446
5.8446
12.045
19.845
22.345
14.845
-4.4554
-13.355
-9.5554
-1.5554
1.7446
0.64464
0.14464
0.74464
-0.75536
-1.7554
-1.9554
-6.4554
-16.855
-26.755
-33.055
-37.755
-41.955
-34.255
-9.3554
16.345
31.545
35.545
31.345
22.545
15.345
11.345
7.8446
6.2446
8.4446
5.3446
5.1446
5.5446
4.1446
2.3446
4.5446
6.4446
5.2446
4.2446
1.7446
2.9446
3.1446
3.7446
3.5446
3.9446
2.9446
3.1446
2.8446
1.8446
2.2446
0.64464
0.74464
4.4446
2.7446
1.8446
3.4446
1.9446
2.7446
-0.055357
0.54464
0.74464
0.64464
-0.35536
-0.25536
-0.75536
-3.2554
-3.6554
-2.6554
-0.35536
-1.5554
0.34464
-0.15536
-0.65536
-2.2554
-2.1554
-4.2554
-2.6554
-3.1554
-2.9554
-0.25536
-1.8554
-1.0554
-2.1554
-2.6554
-1.7554
-0.45536
-2.6554
-0.55536
-1.1554
-0.95536
-1.3554
-1.5554
0.24464
2.2446
3.7446
3.4446
3.9446
3.9446
5.3446
5.9446
7.3446
7.7446
7.2446
6.2446
5.4446
6.8446
6.7446
5.5446
8.0446
14.445
20.945
18.745
8.0446
-9.2554
-11.355
-5.5554
-2.4554
-0.75536
1.0446
-0.75536
0.34464
-1.1554
-0.65536
0.34464
0.14464
-0.85536
-1.1554
-0.95536
0.044643
1.1446
0.14464
-2.1554
-0.65536
-1.6554
-0.55536
-0.65536
-0.25536
0.34464
-1.2554
-1.0554
0.94464
2.4446
0.84464
-0.45536
2.7446
0.74464
2.3446
1.8446
0.94464
1.6446
2.2446
2.4446
-0.45536
-1.0554
0.044643
0.044643
-2.8554
-2.3554
-2.7554
-2.6554
-1.9554
-2.8554
-4.3554
-2.9554
-2.5554
-0.15536
1.0446
0.14464
-0.15536
1.2446
2.2446
4.7446
5.5446
5.6446
5.2446
5.2446
5.4446
4.9446
3.2446
3.3446
4.4446
4.1446
5.4446
6.4446
5.6446
5.7446
5.9446
6.0446
5.2446
4.5446
7.5446
6.4446
6.9446
5.4446
3.0446
2.3446
1.8446
-0.55536
-2.3554
-6.4554
-13.155
-20.355
-26.555
-34.555
-41.155
-33.655
-11.555
13.945
30.245
34.945
31.545
23.745
15.545
10.145
7.1446
4.8446
7.6446
6.6446
4.6446
3.0446
7.4446
15.145
21.145
15.645
1.6446
-11.155
-9.9554
-3.6554
0.54464
0.94464
1.9446
2.5446
1.0446
0.54464
1.5446
0.44464
-0.75536
1.4446
-0.15536
0.34464
1.9446
1.0446
0.84464
0.54464
1.8446
2.9446
2.7446
1.4446
-0.65536
-0.85536
-1.7554
-1.2554
-2.0554
-3.4554
-3.2554
-3.4554
-4.2554
-2.5554
-3.9554
-3.7554
-3.8554
-4.1554
-4.1554
-2.3554
-1.8554
-2.5554
-3.1554
-4.8554
-4.1554
-0.35536
-3.7554
-3.0554
-3.8554
-2.3554
-2.5554
-0.85536
-0.65536
-0.45536
0.84464
2.0446
